Feb. 3, 2006   02:50:41
Cyclic Voltammetry
File: z:\users\scottsaunders\git\labwork\ida\01_23_19_psoralen_nonequil_3\data\control\3\75um_control_soak_3_gc_1.txt
Data Source:  Experiment
Instrument Model:  CHI760E
Header: 
Note: 

Init E (V) = 0
High E (V) = 0
Low E (V) = -0.4
Init P/N = N
Scan Rate (V/s) = 0.003
Segment = 1
Sample Interval (V) = 0.001
Quiet Time (sec) = 2
Sensitivity (A/V) = 1e-5
2nd E (V) = 0
Sens 2 (A/V) = 1e-5

Potential/V, i1/A, i2/A, Time/s

0.000, -8.3579835e-8, -8.3623227e-8, 3.3333334e-1
-0.001, -6.8837750e-8, -7.6030517e-8, 6.6666669e-1
-0.002, -6.0270487e-8, -6.8218135e-8, 1.0000000e+0
-0.003, -5.6032793e-8, -6.1036808e-8, 1.3333334e+0
-0.004, -5.1040214e-8, -5.6160058e-8, 1.6666667e+0
-0.005, -4.5752078e-8, -5.3228419e-8, 2.0000000e+0
-0.006, -4.1574289e-8, -5.0843962e-8, 2.3333333e+0
-0.007, -3.8219277e-8, -4.8131998e-8, 2.6666665e+0
-0.008, -3.5391480e-8, -4.5020620e-8, 2.9999998e+0
-0.009, -3.4173290e-8, -4.1609695e-8, 3.3333330e+0
-0.010, -3.2507767e-8, -3.8853791e-8, 3.6666663e+0
-0.011, -3.1293574e-8, -3.7108386e-8, 3.9999995e+0
-0.012, -3.0015475e-8, -3.5478806e-8, 4.3333330e+0
-0.013, -2.8633526e-8, -3.4360472e-8, 4.6666665e+0
-0.014, -2.6975991e-8, -3.3517722e-8, 5.0000000e+0
-0.015, -2.5813719e-8, -3.2555157e-8, 5.3333335e+0
-0.016, -2.4299970e-8, -3.2099830e-8, 5.6666670e+0
-0.017, -2.2446727e-8, -3.1336967e-8, 6.0000005e+0
-0.018, -2.0849102e-8, -3.0817738e-8, 6.3333340e+0
-0.019, -1.9559019e-8, -3.0066854e-8, 6.6666675e+0
-0.020, -1.8752218e-8, -2.9543633e-8, 7.0000010e+0
-0.021, -1.6994830e-8, -2.9331945e-8, 7.3333344e+0
-0.022, -1.6211995e-8, -2.8684909e-8, 7.6666679e+0
-0.023, -1.5089665e-8, -2.8537130e-8, 8.0000010e+0
-0.024, -1.4374726e-8, -2.7798228e-8, 8.3333340e+0
-0.025, -1.3735677e-8, -2.7418791e-8, 8.6666670e+0
-0.026, -1.3196479e-8, -2.7155185e-8, 9.0000000e+0
-0.027, -1.2565416e-8, -2.6691872e-8, 9.3333330e+0
-0.028, -1.2098112e-8, -2.6500157e-8, 9.6666660e+0
-0.029, -1.1810539e-8, -2.6300453e-8, 9.9999990e+0
-0.030, -1.1562907e-8, -2.6068799e-8, 1.0333332e+1
-0.031, -1.1203443e-8, -2.5673387e-8, 1.0666665e+1
-0.032, -1.0732142e-8, -2.5341878e-8, 1.0999998e+1
-0.033, -1.0276819e-8, -2.5234041e-8, 1.1333331e+1
-0.034, -9.9013766e-9, -2.4730788e-8, 1.1666664e+1
-0.035, -9.7655795e-9, -2.4575019e-8, 1.1999997e+1
-0.036, -9.5179473e-9, -2.4503127e-8, 1.2333330e+1
-0.037, -9.0027141e-9, -2.4674870e-8, 1.2666663e+1
-0.038, -9.1584820e-9, -2.4491143e-8, 1.2999996e+1
-0.039, -8.9547854e-9, -2.3848100e-8, 1.3333329e+1
-0.040, -8.5074499e-9, -2.3756236e-8, 1.3666662e+1
-0.041, -8.2078948e-9, -2.3860080e-8, 1.3999995e+1
-0.042, -8.1240197e-9, -2.3456680e-8, 1.4333328e+1
-0.043, -7.7126314e-9, -2.3472658e-8, 1.4666661e+1
-0.044, -7.8244655e-9, -2.3296920e-8, 1.4999994e+1
-0.045, -7.4929583e-9, -2.3049289e-8, 1.5333327e+1
-0.046, -7.4170714e-9, -2.2981387e-8, 1.5666660e+1
-0.047, -7.0576052e-9, -2.2917483e-8, 1.5999993e+1
-0.048, -6.9218067e-9, -2.2573994e-8, 1.6333326e+1
-0.049, -6.7500627e-9, -2.2530060e-8, 1.6666660e+1
-0.050, -6.6901520e-9, -2.2633904e-8, 1.6999994e+1
-0.051, -6.4225492e-9, -2.2406244e-8, 1.7333328e+1
-0.052, -6.3985852e-9, -2.2222515e-8, 1.7666662e+1
-0.053, -6.1110126e-9, -2.2306393e-8, 1.7999996e+1
-0.054, -5.8633809e-9, -2.1970891e-8, 1.8333330e+1
-0.055, -5.7315765e-9, -2.1954914e-8, 1.8666664e+1
-0.056, -5.6596843e-9, -2.1615419e-8, 1.8999998e+1
-0.057, -5.6796541e-9, -2.1623407e-8, 1.9333332e+1
-0.058, -5.6477019e-9, -2.1423704e-8, 1.9666666e+1
-0.059, -5.1843911e-9, -2.1192049e-8, 2.0000000e+1
-0.060, -5.1444502e-9, -2.1343823e-8, 2.0333334e+1
-0.061, -5.0006630e-9, -2.1212019e-8, 2.0666668e+1
-0.062, -5.2762541e-9, -2.1120156e-8, 2.1000002e+1
-0.063, -4.8488888e-9, -2.1331841e-8, 2.1333336e+1
-0.064, -4.8129420e-9, -2.1036280e-8, 2.1666670e+1
-0.065, -4.8169366e-9, -2.0820600e-8, 2.2000004e+1
-0.066, -4.2937147e-9, -2.0904475e-8, 2.2333338e+1
-0.067, -4.2897206e-9, -2.0884505e-8, 2.2666672e+1
-0.068, -3.9262615e-9, -2.1283912e-8, 2.3000006e+1
-0.069, -3.7225638e-9, -2.1220007e-8, 2.3333340e+1
-0.070, -3.9542196e-9, -2.0840570e-8, 2.3666674e+1
-0.071, -4.1139825e-9, -2.0493086e-8, 2.4000008e+1
-0.072, -3.7505221e-9, -2.0501075e-8, 2.4333342e+1
-0.073, -3.6466761e-9, -2.0732733e-8, 2.4666676e+1
-0.074, -3.6227119e-9, -2.0604922e-8, 2.5000010e+1
-0.075, -3.3950502e-9, -2.0732733e-8, 2.5333344e+1
-0.076, -2.4764168e-9, -2.0708768e-8, 2.5666677e+1
-0.077, -3.0116212e-9, -2.0700778e-8, 2.6000011e+1
-0.078, -2.9596976e-9, -2.0325338e-8, 2.6333345e+1
-0.079, -2.1009752e-9, -2.0237469e-8, 2.6666679e+1
-0.080, -2.4724227e-9, -2.0604922e-8, 2.7000013e+1
-0.081, -2.4204991e-9, -2.0033770e-8, 2.7333347e+1
-0.082, -2.0490516e-9, -2.0005812e-8, 2.7666681e+1
-0.083, -2.5682803e-9, -2.0169569e-8, 2.8000015e+1
-0.084, -2.0091118e-9, -1.9889985e-8, 2.8333349e+1
-0.085, -1.6296759e-9, -2.0269420e-8, 2.8666683e+1
-0.086, -1.5617767e-9, -2.0157588e-8, 2.9000017e+1
-0.087, -1.7734616e-9, -1.9842055e-8, 2.9333351e+1
-0.088, -1.0305666e-9, -2.0257438e-8, 2.9666685e+1
-0.089, -1.3740559e-9, -2.0257438e-8, 3.0000019e+1
-0.090, -8.7479823e-10, -1.9913948e-8, 3.0333353e+1
-0.091, -1.0824890e-9, -1.9666317e-8, 3.0666687e+1
-0.092, -8.5083302e-10, -1.9846050e-8, 3.1000021e+1
-0.093, -7.9092216e-10, -1.9594424e-8, 3.1333355e+1
-0.094, -5.7923721e-10, -1.9786139e-8, 3.1666689e+1
-0.095, -4.3944454e-10, -1.9722233e-8, 3.2000023e+1
-0.096, -8.7879132e-10, -1.9426674e-8, 3.2333355e+1
-0.097, -8.5083302e-10, -1.9850043e-8, 3.2666687e+1
-0.098, -2.2376538e-10, -1.9514543e-8, 3.3000019e+1
-0.099, 1.1883675e-11, -1.9830074e-8, 3.3333351e+1
-0.100, 2.3155705e-10, -2.0101671e-8, 3.3666683e+1
-0.101, 2.7948641e-10, -1.9774157e-8, 3.4000015e+1
-0.102, 1.1883675e-11, -1.9798120e-8, 3.4333347e+1
-0.103, 4.0330225e-10, -1.9734218e-8, 3.4666679e+1
-0.104, 6.1898142e-10, -1.9630370e-8, 3.5000011e+1
-0.105, -2.7169472e-10, -1.9806109e-8, 3.5333344e+1
-0.106, 8.9856561e-10, -1.9870013e-8, 3.5666676e+1
-0.107, 4.6720727e-10, -1.9678298e-8, 3.6000008e+1
-0.108, 2.7149799e-10, -1.9921936e-8, 3.6333340e+1
-0.109, 4.9516558e-10, -1.9502560e-8, 3.6666672e+1
-0.110, 7.7075557e-10, -2.0133623e-8, 3.7000004e+1
-0.111, 1.2101024e-9, -1.9498566e-8, 3.7333336e+1
-0.112, 1.4098058e-9, -1.9346793e-8, 3.7666668e+1
-0.113, 7.7874396e-10, -1.9542503e-8, 3.8000000e+1
-0.114, 1.5575857e-9, -1.9398716e-8, 3.8333332e+1
-0.115, 8.2667218e-10, -1.9726230e-8, 3.8666664e+1
-0.116, 1.9170519e-9, -1.9266912e-8, 3.8999996e+1
-0.117, 2.2206001e-9, -1.9294870e-8, 3.9333328e+1
-0.118, 1.4737108e-9, -1.9059220e-8, 3.9666660e+1
-0.119, 1.8012232e-9, -1.9111143e-8, 3.9999992e+1
-0.120, 1.9569917e-9, -1.9234959e-8, 4.0333324e+1
-0.121, 1.8850981e-9, -1.9191024e-8, 4.0666656e+1
-0.122, 1.8411653e-9, -1.9258923e-8, 4.0999989e+1
-0.123, 2.5481137e-9, -1.9482590e-8, 4.1333321e+1
-0.124, 2.6958935e-9, -1.8963362e-8, 4.1666653e+1
-0.125, 2.4282920e-9, -1.9007297e-8, 4.1999985e+1
-0.126, 2.6240001e-9, -1.9023274e-8, 4.2333317e+1
-0.127, 2.9994418e-9, -1.9119131e-8, 4.2666649e+1
-0.128, 3.5985523e-9, -1.9127118e-8, 4.2999981e+1
-0.129, 3.4507701e-9, -1.9107148e-8, 4.3333313e+1
-0.130, 3.8022487e-9, -1.9083185e-8, 4.3666645e+1
-0.131, 3.9100891e-9, -1.9019279e-8, 4.3999977e+1
-0.132, 3.7503254e-9, -1.9662323e-8, 4.4333309e+1
-0.133, 4.5251740e-9, -1.8955374e-8, 4.4666641e+1
-0.134, 4.1936676e-9, -1.8987327e-8, 4.4999973e+1
-0.135, 4.3174819e-9, -1.8843540e-8, 4.5333305e+1
-0.136, 4.4652619e-9, -1.9083185e-8, 4.5666637e+1
-0.137, 5.4278328e-9, -1.8883481e-8, 4.5999969e+1
-0.138, 4.9884861e-9, -1.9326821e-8, 4.6333302e+1
-0.139, 5.0404072e-9, -1.9358774e-8, 4.6666634e+1
-0.140, 4.9285740e-9, -1.9087178e-8, 4.6999966e+1
-0.141, 5.5356706e-9, -1.9774157e-8, 4.7333298e+1
-0.142, 5.4158491e-9, -1.9067208e-8, 4.7666630e+1
-0.143, 5.6035709e-9, -1.9171054e-8, 4.7999962e+1
-0.144, 6.1387744e-9, -1.9638358e-8, 4.8333294e+1
-0.145, 5.4238374e-9, -1.9490578e-8, 4.8666626e+1
-0.146, 6.0708762e-9, -1.9418685e-8, 4.8999958e+1
-0.147, 5.7473555e-9, -1.9370757e-8, 4.9333290e+1
-0.148, 6.3784173e-9, -1.9546496e-8, 4.9666622e+1
-0.149, 6.8257524e-9, -1.8939398e-8, 4.9999954e+1
-0.150, 7.0933566e-9, -1.9826080e-8, 5.0333286e+1
-0.151, 6.7977943e-9, -1.9350786e-8, 5.0666618e+1
-0.152, 7.3170230e-9, -1.9734218e-8, 5.0999950e+1
-0.153, 7.7683513e-9, -1.9686286e-8, 5.1333282e+1
-0.154, 7.2491249e-9, -1.9790134e-8, 5.1666615e+1
-0.155, 7.4967561e-9, -1.9762176e-8, 5.1999947e+1
-0.156, 8.1957161e-9, -2.0133623e-8, 5.2333279e+1
-0.157, 7.6964604e-9, -2.0081698e-8, 5.2666611e+1
-0.158, 8.2755980e-9, -2.0037765e-8, 5.2999943e+1
-0.159, 8.8147969e-9, -2.0045754e-8, 5.3333275e+1
-0.160, 8.8307717e-9, -1.9933918e-8, 5.3666607e+1
-0.161, 8.9266301e-9, -2.0265427e-8, 5.3999939e+1
-0.162, 9.2421599e-9, -2.0273413e-8, 5.4333271e+1
-0.163, 9.3300301e-9, -2.0265427e-8, 5.4666603e+1
-0.164, 9.2980788e-9, -2.0333326e-8, 5.4999935e+1
-0.165, 1.0084909e-8, -2.0664832e-8, 5.5333267e+1
-0.166, 1.0272629e-8, -2.0660838e-8, 5.5666599e+1
-0.167, 1.0484314e-8, -2.0804624e-8, 5.5999931e+1
-0.168, 1.0628100e-8, -2.1351811e-8, 5.6333263e+1
-0.169, 1.0707982e-8, -2.1028292e-8, 5.6666595e+1
-0.170, 1.1035493e-8, -2.1180067e-8, 5.6999928e+1
-0.171, 1.1359014e-8, -2.1291902e-8, 5.7333260e+1
-0.172, 1.1850282e-8, -2.1695302e-8, 5.7666592e+1
-0.173, 1.1858271e-8, -2.1910980e-8, 5.7999924e+1
-0.174, 1.2002057e-8, -2.2138641e-8, 5.8333256e+1
-0.175, 1.2333564e-8, -2.2286420e-8, 5.8666588e+1
-0.176, 1.2856788e-8, -2.2318375e-8, 5.8999920e+1
-0.177, 1.2980602e-8, -2.2577987e-8, 5.9333252e+1
-0.178, 1.3316105e-8, -2.2825619e-8, 5.9666584e+1
-0.179, 1.3603676e-8, -2.2673847e-8, 5.9999916e+1
-0.180, 1.4055004e-8, -2.2765709e-8, 6.0333248e+1
-0.181, 1.4606186e-8, -2.3149139e-8, 6.0666580e+1
-0.182, 1.4853819e-8, -2.3229019e-8, 6.0999912e+1
-0.183, 1.4977633e-8, -2.3492628e-8, 6.1333244e+1
-0.184, 1.5532809e-8, -2.3640407e-8, 6.1666576e+1
-0.185, 1.5708546e-8, -2.3987891e-8, 6.1999908e+1
-0.186, 1.5924227e-8, -2.4527090e-8, 6.2333241e+1
-0.187, 1.6339609e-8, -2.4351351e-8, 6.2666573e+1
-0.188, 1.6842860e-8, -2.4590994e-8, 6.2999905e+1
-0.189, 1.7421998e-8, -2.5261999e-8, 6.3333237e+1
-0.190, 1.7849363e-8, -2.5477677e-8, 6.3666569e+1
-0.191, 1.8524361e-8, -2.5577528e-8, 6.3999901e+1
-0.192, 1.8851875e-8, -2.5889065e-8, 6.4333237e+1
-0.193, 1.9910297e-8, -2.6212586e-8, 6.4666573e+1
-0.194, 2.0521389e-8, -2.6619979e-8, 6.4999908e+1
-0.195, 2.1324199e-8, -2.7203113e-8, 6.5333244e+1
-0.196, 2.2486471e-8, -2.7350891e-8, 6.5666580e+1
-0.197, 2.3924335e-8, -2.7878109e-8, 6.5999916e+1
-0.198, 2.5294296e-8, -2.8201628e-8, 6.6333252e+1
-0.199, 2.7279345e-8, -2.8617009e-8, 6.6666588e+1
-0.200, 2.8813066e-8, -2.9335942e-8, 6.6999924e+1
-0.201, 3.0889975e-8, -2.9847183e-8, 6.7333260e+1
-0.202, 3.2699290e-8, -3.0474247e-8, 6.7666595e+1
-0.203, 3.4416733e-8, -3.1009453e-8, 6.7999931e+1
-0.204, 3.5622939e-8, -3.1676461e-8, 6.8333267e+1
-0.205, 3.6661397e-8, -3.2399388e-8, 6.8666603e+1
-0.206, 3.7843641e-8, -3.2970537e-8, 6.8999939e+1
-0.207, 3.9613010e-8, -3.3877189e-8, 6.9333275e+1
-0.208, 4.1050868e-8, -3.4919637e-8, 6.9666611e+1
-0.209, 4.2788287e-8, -3.5962088e-8, 6.9999947e+1
-0.210, 4.5096854e-8, -3.7575688e-8, 7.0333282e+1
-0.211, 4.7369475e-8, -3.8654086e-8, 7.0666618e+1
-0.212, 5.0416947e-8, -4.0499344e-8, 7.0999954e+1
-0.213, 5.4514853e-8, -4.2376556e-8, 7.1333290e+1
-0.214, 5.7626224e-8, -4.4804942e-8, 7.1666626e+1
-0.215, 6.0769558e-8, -4.7089546e-8, 7.1999962e+1
-0.216, 6.3325757e-8, -4.9050630e-8, 7.2333298e+1
-0.217, 6.5438613e-8, -5.0500475e-8, 7.2666634e+1
-0.218, 6.7787120e-8, -5.2030202e-8, 7.2999969e+1
-0.219, 7.1469643e-8, -5.3352231e-8, 7.3333305e+1
-0.220, 7.6637960e-8, -5.4881959e-8, 7.3666641e+1
-0.221, 8.2249613e-8, -5.7022774e-8, 7.3999977e+1
-0.222, 8.6175781e-8, -6.0146135e-8, 7.4333313e+1
-0.223, 9.0042022e-8, -6.3856618e-8, 7.4666649e+1
-0.224, 9.3456954e-8, -6.6971985e-8, 7.4999985e+1
-0.225, 9.9855434e-8, -7.0650515e-8, 7.5333321e+1
-0.226, 1.0749608e-7, -7.3514258e-8, 7.5666656e+1
-0.227, 1.1248466e-7, -7.6757438e-8, 7.5999992e+1
-0.228, 1.1698197e-7, -7.9429462e-8, 7.6333328e+1
-0.229, 1.2370798e-7, -8.2936246e-8, 7.6666664e+1
-0.230, 1.3187983e-7, -8.7209898e-8, 7.7000000e+1
-0.231, 1.3732374e-7, -9.2885458e-8, 7.7333336e+1
-0.232, 1.4284751e-7, -9.7993862e-8, 7.7666672e+1
-0.233, 1.5235737e-7, -1.0197594e-7, 7.8000008e+1
-0.234, 1.6025366e-7, -1.0596601e-7, 7.8333344e+1
-0.235, 1.6624873e-7, -1.1186923e-7, 7.8666679e+1
-0.236, 1.7589440e-7, -1.1929819e-7, 7.9000015e+1
-0.237, 1.8527645e-7, -1.2511354e-7, 7.9333351e+1
-0.238, 1.9154314e-7, -1.3027388e-7, 7.9666687e+1
-0.239, 2.0448789e-7, -1.3628893e-7, 8.0000023e+1
-0.240, 2.1276756e-7, -1.4593060e-7, 8.0333359e+1
-0.241, 2.2232535e-7, -1.5140246e-7, 8.0666695e+1
-0.242, 2.3411584e-7, -1.5659874e-7, 8.1000031e+1
-0.243, 2.4212792e-7, -1.6626836e-7, 8.1333366e+1
-0.244, 2.5593940e-7, -1.7360944e-7, 8.1666702e+1
-0.245, 2.6479023e-7, -1.8003189e-7, 8.2000038e+1
-0.246, 2.7863766e-7, -1.8976543e-7, 8.2333374e+1
-0.247, 2.8779203e-7, -1.9846050e-7, 8.2666710e+1
-0.248, 3.0223856e-7, -2.0563783e-7, 8.3000046e+1
-0.249, 3.1280283e-7, -2.1697298e-7, 8.3333382e+1
-0.250, 3.2745305e-7, -2.2565206e-7, 8.3666718e+1
-0.251, 3.3645566e-7, -2.3441504e-7, 8.4000053e+1
-0.252, 3.5131757e-7, -2.4630137e-7, 8.4333389e+1
-0.253, 3.6169814e-7, -2.5378623e-7, 8.4666725e+1
-0.254, 3.7610471e-7, -2.6578840e-7, 8.5000061e+1
-0.255, 3.8612978e-7, -2.7517842e-7, 8.5333397e+1
-0.256, 4.0169067e-7, -2.8525545e-7, 8.5666733e+1
-0.257, 4.1209520e-7, -2.9657062e-7, 8.6000069e+1
-0.258, 4.2737648e-7, -3.0620430e-7, 8.6333405e+1
-0.259, 4.3709005e-7, -3.1823842e-7, 8.6666740e+1
-0.260, 4.5221157e-7, -3.2730492e-7, 8.7000076e+1
-0.261, 4.6209689e-7, -3.4047736e-7, 8.7333412e+1
-0.262, 4.7651542e-7, -3.4860125e-7, 8.7666748e+1
-0.263, 4.8634081e-7, -3.5994842e-7, 8.8000084e+1
-0.264, 5.0116677e-7, -3.6996153e-7, 8.8333420e+1
-0.265, 5.1090029e-7, -3.7885229e-7, 8.8666756e+1
-0.266, 5.2493942e-7, -3.9123788e-7, 8.9000092e+1
-0.267, 5.3295554e-7, -3.9982112e-7, 8.9333427e+1
-0.268, 5.4659125e-7, -4.1151574e-7, 8.9666763e+1
-0.269, 5.5554591e-7, -4.2122531e-7, 9.0000099e+1
-0.270, 5.6656154e-7, -4.3067922e-7, 9.0333435e+1
-0.271, 5.7794063e-7, -4.4202238e-7, 9.0666771e+1
-0.272, 5.8545345e-7, -4.4893611e-7, 9.1000107e+1
-0.273, 5.9866983e-7, -4.5944446e-7, 9.1333443e+1
-0.274, 6.0667793e-7, -4.6876661e-7, 9.1666779e+1
-0.275, 6.1680686e-7, -4.7648714e-7, 9.2000114e+1
-0.276, 6.2575754e-7, -4.8699951e-7, 9.2333450e+1
-0.277, 6.3241572e-7, -4.9476392e-7, 9.2666786e+1
-0.278, 6.4228897e-7, -5.0221291e-7, 9.3000122e+1
-0.279, 6.5054070e-7, -5.1236981e-7, 9.3333458e+1
-0.280, 6.5594065e-7, -5.1936337e-7, 9.3666794e+1
-0.281, 6.6357336e-7, -5.2620123e-7, 9.4000130e+1
-0.282, 6.7218855e-7, -5.3648193e-7, 9.4333466e+1
-0.283, 6.7722505e-7, -5.4276461e-7, 9.4666801e+1
-0.284, 6.8255309e-7, -5.4676667e-7, 9.5000137e+1
-0.285, 6.9147188e-7, -5.5425954e-7, 9.5333473e+1
-0.286, 6.9827377e-7, -5.6181227e-7, 9.5666809e+1
-0.287, 7.0256334e-7, -5.6720029e-7, 9.6000145e+1
-0.288, 7.0585855e-7, -5.7224076e-7, 9.6333481e+1
-0.289, 7.1176169e-7, -5.7833569e-7, 9.6666817e+1
-0.290, 7.1835188e-7, -5.8617604e-7, 9.7000153e+1
-0.291, 7.2321666e-7, -5.9075325e-7, 9.7333488e+1
-0.292, 7.2638397e-7, -5.9497097e-7, 9.7666824e+1
-0.293, 7.2978690e-7, -5.9931256e-7, 9.8000160e+1
-0.294, 7.3493925e-7, -6.0555919e-7, 9.8333496e+1
-0.295, 7.3936064e-7, -6.1161421e-7, 9.8666832e+1
-0.296, 7.4468880e-7, -6.1626730e-7, 9.9000168e+1
-0.297, 7.4768832e-7, -6.2029733e-7, 9.9333504e+1
-0.298, 7.5022052e-7, -6.2406372e-7, 9.9666840e+1
-0.299, 7.5225756e-7, -6.2844521e-7, 1.0000018e+2
-0.300, 7.5417864e-7, -6.3356958e-7, 1.0033351e+2
-0.301, 7.5705435e-7, -6.3806294e-7, 1.0066685e+2
-0.302, 7.6011781e-7, -6.4066705e-7, 1.0100018e+2
-0.303, 7.6400403e-7, -6.4285177e-7, 1.0133352e+2
-0.304, 7.6745494e-7, -6.4586334e-7, 1.0166685e+2
-0.305, 7.7048645e-7, -6.4917043e-7, 1.0200019e+2
-0.306, 7.7273506e-7, -6.5292079e-7, 1.0233353e+2
-0.307, 7.7427279e-7, -6.5651551e-7, 1.0266686e+2
-0.308, 7.7581046e-7, -6.6013814e-7, 1.0300020e+2
-0.309, 7.7704061e-7, -6.6277420e-7, 1.0333353e+2
-0.310, 7.7860636e-7, -6.6484711e-7, 1.0366687e+2
-0.311, 7.8000426e-7, -6.6699590e-7, 1.0400021e+2
-0.312, 7.8279209e-7, -6.6876925e-7, 1.0433354e+2
-0.313, 7.8439768e-7, -6.7075035e-7, 1.0466688e+2
-0.314, 7.8747314e-7, -6.7267541e-7, 1.0500021e+2
-0.315, 7.8994952e-7, -6.7487218e-7, 1.0533355e+2
-0.316, 7.9225401e-7, -6.7771992e-7, 1.0566689e+2
-0.317, 7.9433892e-7, -6.8091515e-7, 1.0600022e+2
-0.318, 7.9592860e-7, -6.8341149e-7, 1.0633356e+2
-0.319, 7.9733849e-7, -6.8555630e-7, 1.0666689e+2
-0.320, 7.9854067e-7, -6.8771311e-7, 1.0700023e+2
-0.321, 7.9968299e-7, -6.8930274e-7, 1.0733356e+2
-0.322, 8.0048977e-7, -6.9045302e-7, 1.0766690e+2
-0.323, 8.0156423e-7, -6.9186694e-7, 1.0800024e+2
-0.324, 8.0231507e-7, -6.9358032e-7, 1.0833357e+2
-0.325, 8.0355323e-7, -6.9482655e-7, 1.0866691e+2
-0.326, 8.0456778e-7, -6.9636422e-7, 1.0900024e+2
-0.327, 8.0618537e-7, -6.9858095e-7, 1.0933358e+2
-0.328, 8.0737561e-7, -7.0041426e-7, 1.0966692e+2
-0.329, 8.0869762e-7, -7.0303037e-7, 1.1000025e+2
-0.330, 8.1070658e-7, -7.0493951e-7, 1.1033359e+2
-0.331, 8.1269167e-7, -7.0720409e-7, 1.1066692e+2
-0.332, 8.1451293e-7, -7.0923312e-7, 1.1100026e+2
-0.333, 8.1558335e-7, -7.1090267e-7, 1.1133360e+2
-0.334, 8.1751648e-7, -7.1236445e-7, 1.1166693e+2
-0.335, 8.1854296e-7, -7.1380231e-7, 1.1200027e+2
-0.336, 8.1962935e-7, -7.1503251e-7, 1.1233360e+2
-0.337, 8.2022046e-7, -7.1628261e-7, 1.1266694e+2
-0.338, 8.2175023e-7, -7.1749679e-7, 1.1300027e+2
-0.339, 8.2232128e-7, -7.1860711e-7, 1.1333361e+2
-0.340, 8.2298834e-7, -7.1983732e-7, 1.1366695e+2
-0.341, 8.2410668e-7, -7.2096367e-7, 1.1400028e+2
-0.342, 8.2511320e-7, -7.2157872e-7, 1.1433362e+2
-0.343, 8.2589202e-7, -7.2310849e-7, 1.1466695e+2
-0.344, 8.2654304e-7, -7.2465417e-7, 1.1500029e+2
-0.345, 8.2684664e-7, -7.2651943e-7, 1.1533363e+2
-0.346, 8.2764541e-7, -7.2811304e-7, 1.1566696e+2
-0.347, 8.2802882e-7, -7.3014598e-7, 1.1600030e+2
-0.348, 8.2878773e-7, -7.3226283e-7, 1.1633363e+2
-0.349, 8.2923901e-7, -7.3351299e-7, 1.1666697e+2
-0.350, 8.3042130e-7, -7.3509466e-7, 1.1700031e+2
-0.351, 8.3134398e-7, -7.3643264e-7, 1.1733364e+2
-0.352, 8.3241036e-7, -7.3726744e-7, 1.1766698e+2
-0.353, 8.3301745e-7, -7.3804631e-7, 1.1800031e+2
-0.354, 8.3405990e-7, -7.3886906e-7, 1.1833365e+2
-0.355, 8.3493057e-7, -7.3899281e-7, 1.1866698e+2
-0.356, 8.3615674e-7, -7.3947211e-7, 1.1900032e+2
-0.357, 8.3793810e-7, -7.4012718e-7, 1.1933366e+2
-0.358, 8.3906446e-7, -7.4063843e-7, 1.1966699e+2
-0.359, 8.3996713e-7, -7.4149710e-7, 1.2000033e+2
-0.360, 8.4150878e-7, -7.4235186e-7, 1.2033366e+2
-0.361, 8.4237951e-7, -7.4278717e-7, 1.2066700e+2
-0.362, 8.4336205e-7, -7.4384167e-7, 1.2100034e+2
-0.363, 8.4461220e-7, -7.4484018e-7, 1.2133367e+2
-0.364, 8.4532309e-7, -7.4607834e-7, 1.2166701e+2
-0.365, 8.4610593e-7, -7.4735641e-7, 1.2200034e+2
-0.366, 8.4692073e-7, -7.4849873e-7, 1.2233368e+2
-0.367, 8.4761973e-7, -7.5031204e-7, 1.2266702e+2
-0.368, 8.4835068e-7, -7.5166201e-7, 1.2300035e+2
-0.369, 8.4870209e-7, -7.5333156e-7, 1.2333369e+2
-0.370, 8.4959282e-7, -7.5474946e-7, 1.2366702e+2
-0.371, 8.5038363e-7, -7.5587576e-7, 1.2400036e+2
-0.372, 8.5125430e-7, -7.5722176e-7, 1.2433369e+2
-0.373, 8.5230880e-7, -7.5833208e-7, 1.2466703e+2
-0.374, 8.5327133e-7, -7.5940653e-7, 1.2500037e+2
-0.375, 8.5395027e-7, -7.6070455e-7, 1.2533370e+2
-0.376, 8.5540813e-7, -7.6140753e-7, 1.2566704e+2
-0.377, 8.5657842e-7, -7.6203861e-7, 1.2600037e+2
-0.378, 8.5793641e-7, -7.6276950e-7, 1.2633371e+2
-0.379, 8.6010914e-7, -7.6352842e-7, 1.2666705e+2
-0.380, 8.6062840e-7, -7.6445502e-7, 1.2700038e+2
-0.381, 8.6294494e-7, -7.6497821e-7, 1.2733372e+2
-0.382, 8.6401536e-7, -7.6591283e-7, 1.2766705e+2
-0.383, 8.6542525e-7, -7.6687138e-7, 1.2800038e+2
-0.384, 8.6645571e-7, -7.6745454e-7, 1.2833371e+2
-0.385, 8.6764595e-7, -7.6818549e-7, 1.2866704e+2
-0.386, 8.6863650e-7, -7.6941967e-7, 1.2900037e+2
-0.387, 8.6934745e-7, -7.7036225e-7, 1.2933369e+2
-0.388, 8.7018617e-7, -7.7125691e-7, 1.2966702e+2
-0.389, 8.7082918e-7, -7.7217555e-7, 1.3000035e+2
-0.390, 8.7105690e-7, -7.7275467e-7, 1.3033368e+2
-0.391, 8.7158412e-7, -7.7328986e-7, 1.3066701e+2
-0.392, 8.7240687e-7, -7.7453200e-7, 1.3100034e+2
-0.393, 8.7310582e-7, -7.7576220e-7, 1.3133366e+2
-0.394, 8.7408438e-7, -7.7698439e-7, 1.3166699e+2
-0.395, 8.7466753e-7, -7.7841423e-7, 1.3200032e+2
-0.396, 8.7511887e-7, -7.7946072e-7, 1.3233365e+2
-0.397, 8.7560210e-7, -7.8033543e-7, 1.3266698e+2
-0.398, 8.7640490e-7, -7.8140181e-7, 1.3300031e+2
-0.399, 8.7767108e-7, -7.8218466e-7, 1.3333363e+2
